[240303, 231439, 250796, 237087, 264027, 259191, 242086, 243376, 233021, 255502, 245612, 244385, 243972, 242765, 242877, 243250, 235087, 262893, 246153, 205493, 203383, 260173, 261475, 243630, 230906, 234655, 241768, 238826, 240566, 206124, 246069, 225718, 259554, 242910, 247861, 233754, 245079, 244353, 246957, 206373, 264559, 246983, 262478, 227802, 251362, 244881, 258631, 247460, 263590, 240137, 241729, 237236, 236510, 203092, 257606, 200462, 231639, 238275, 203715, 242984, 232762, 248745, 235246, 204245, 256791, 258902, 246382, 243438, 247704, 263642, 225203, 203924, 264724, 258663, 232466, 258460, 243829, 260585, 202059, 262330, 259511, 258034, 261467, 257771, 248275, 261152, 238563, 251575, 230736, 251665, 236241, 241076, 237612, 236360, 236910, 234425, 240907, 239786, 240071, 231255, 261089, 243361, 249593, 255179, 231667, 248729, 250078, 226089, 259344, 235847, 247004, 242062, 231379, 238585, 244874, 235626, 256346, 259532, 235541, 249896, 263212, 233348, 247695, 243705, 261261, 259197, 205056, 205430, 244491, 246576, 231432, 236322, 236213, 260825, 244589, 204235, 249374, 238734, 231886, 201745, 200026, 204327, 236299, 255632, 203375, 261253, 256772, 206439, 242246, 233927, 238281, 200893, 257420, 246827, 238165, 262001, 204857, 245926, 203996, 240151, 262586, 249881, 256704, 204215, 204979, 205511, 201703, 236229, 255066, 258551, 248532, 247486, 262922, 262447, 202621, 231265, 200437, 263575, 234674, 261583, 260448, 236017, 232352, 239388, 234270, 243579, 256618, 259265, 244694, 241061, 264682, 244702, 204742, 265170, 233563, 202129, 238298, 233854, 249011, 241700, 262948, 204377, 203762, 260833, 241259, 230063, 251559, 240908, 202138, 231382, 201435, 260379, 242222, 248772, 257178, 259042, 205424, 257565, 255125, 231850, 244504, 257414, 234804, 248914, 263482, 231184, 203478, 258587, 231743, 265256, 230313, 263014, 241117, 234749, 236532, 237692, 258414, 240557, 202076, 249749, 260580, 243601, 247187, 238039, 234019, 235977, 262748, 202128, 236779, 248119, 246041, 245791, 237409, 242913, 263483, 240076, 230088, 244623, 240595, 246575, 255541, 241229, 237699, 258822, 257787, 240038, 235368, 239559, 259114, 239548, 236572, 247349, 258795, 244184, 242689, 203834, 200448, 234370, 237166, 257858, 234772, 204485, 251517, 237979, 255699, 244931, 206491, 236692, 247710, 225226, 241135, 261721, 245304, 264788, 257365, 235944, 205849, 236947, 235167, 201933, 200257, 247891, 258112, 238276, 243790, 201400, 244570, 238834, 248973, 231369, 241509, 242466, 238697, 236818, 237114, 200910, 239557, 241563, 258420, 261499, 239533, 232191, 256313, 265253, 264751, 205248, 245381, 232366, 202816, 245996, 263023, 258816, 250439, 200957, 231915, 247487, 245921, 232316, 232678, 264211, 235436, 236195, 261549, 251430, 236069, 255764, 201408, 235858, 232827, 240360, 245950, 234261, 264199, 241343, 206529, 234797, 205339, 238017, 233164, 232543, 251204, 202943, 237101, 245442, 246663, 264048, 250303, 242434, 255663, 230281, 244942, 248918, 205576, 242532, 205117, 248991, 257088, 259467, 245796, 237354, 230470, 247480, 226505, 260844, 241508, 231659, 265152, 243169, 257050, 263255, 204417, 233497, 243233, 256019, 237865, 249779, 235865, 261401, 230465, 249544, 238970, 233067, 227669, 233498, 234125, 244139, 201606, 262838, 244316, 200640, 241665, 239644, 203601, 248369, 203825, 232800, 232020, 240400, 230680, 201519, 249507, 258244, 247836, 233980, 259232, 230271, 250955, 263465, 237626, 234131, 232494, 205905, 248794, 258715, 261084, 206138, 241613, 259300, 206517, 258292, 203456, 248014, 240761, 265333, 202168, 258959, 259228, 255530, 205240, 233178, 203219, 201796, 256971, 230079, 250219, 264881, 243982, 242152, 231275, 246513, 236886, 255581, 235286, 244918, 243838, 248130, 249605, 248457, 249625, 232336, 248705, 258301, 259813, 255747, 261194, 245512, 231407, 204391, 236369, 240439, 205423, 206207, 248650, 234320, 263447, 200349, 231104, 256430, 246496, 236297, 231979, 256735, 234992, 234611, 250541, 249340, 235582, 242916, 231949, 202025, 226019, 243348, 200647, 238287, 258276, 203896, 234378, 232215, 232490, 264787, 231154, 258710, 232586, 203455, 244315, 264071, 258934, 200079, 243228, 242595, 238082, 247821, 255290, 249907, 255166, 243547, 203727, 204000, 264556, 240989, 244011, 202930, 250341, 232696, 240266, 259704, 251220, 264838, 245944, 235789, 244462, 263635, 259973, 234647, 255337, 243236, 239076, 233045, 236456, 242268, 242261, 249715, 261058, 251160, 225240, 261096, 231960, 225136, 243785, 245761, 241902, 247743, 249431, 250730, 245421, 243316, 265261, 247205, 202429, 235016, 237758, 206779, 264180, 236242, 239819, 204094, 250432, 261523, 262522, 239209, 232821, 258909, 247376, 244463, 246890, 239283, 247119, 259662, 240094, 246357, 204403, 203789, 232197, 258013, 231269, 233582, 250608, 249889, 203330, 201409, 260104, 205670, 247144, 236186, 258479, 225515, 249617, 235445, 238199, 205738, 205285, 264963, 201948, 232139, 257865, 206289, 204737, 261970, 246352, 263068, 232871, 246553, 249891, 230941, 234844, 258086, 251448, 203320, 255437, 233108, 260983, 233126, 236212, 247317, 232348, 201188, 235781, 235039, 257535, 205042, 232851, 248053, 246791, 206421, 200987, 260075, 225195, 243810, 256194, 248453, 230708, 265018, 200683, 264629, 231654, 247210, 232040, 255222, 233852, 232614, 237271, 233036, 202276, 231973, 240426, 206572, 257477, 230743, 265083, 249387, 237701, 230663, 202933, 227277, 206470, 230349, 230693, 245293, 233912, 205479, 250061, 202610, 250670, 249719, 238572, 248008, 247368, 240509, 239099, 248040, 256060, 238020, 234816, 245044, 258785, 232071, 250920, 248137, 260470, 243523, 264927, 203681, 255429, 237004, 243610, 206311, 236171, 246854, 242763, 255058, 238500, 235399, 230315, 261585, 251706, 231847, 201808, 240339, 246537, 237764, 260797, 256620, 233810, 246012, 257124, 205928, 239975, 203776, 233939, 244352, 200831, 239063, 237511, 231987, 259064, 248160, 231004, 247457, 246260, 200391, 228161, 236724, 245549, 248117, 200255, 264606, 202644, 226245, 238452, 241122, 234253, 204126, 251790, 201668, 233587, 242221, 239191, 241779, 236143, 246228, 205587, 232281, 239170, 261196, 202363, 264453, 226554, 232367, 241763, 265115, 201056, 247137, 235068, 239336, 205675, 200940, 238808, 233858, 262199, 247597, 232764, 200528, 232098, 242330, 232716, 204024, 262693, 263539, 239986, 263939, 258847, 255995, 250526, 262276, 201083, 203191, 249026, 234685, 204911, 260865, 246571, 203244, 255452, 231658, 204755, 256118, 240738, 262434, 247099, 231060, 230958, 226300, 237369, 206747, 204278, 245964, 231714, 204665, 250392, 257225, 255957, 256362, 259708, 206036, 260221, 240438, 239716, 233180, 242587, 202643, 242124, 259392, 250941, 205888, 245221, 243696, 260511, 236092, 202078, 202977, 263702, 265246, 203135, 201199, 234580, 240902, 247963, 239880, 203574, 250682, 255087, 243846, 230352, 258560, 240767, 261091, 260675, 256139, 230598, 233930, 240755, 251611, 261983, 247078, 238617, 201691, 238598, 238057, 234923, 260534, 243975, 248831, 260091, 230795, 230220, 202226, 249829, 255763, 262128, 264501, 248381, 257691, 233175, 245177, 236412, 251642, 249479, 206801, 247906, 202373, 237812, 235538, 231871, 233774, 240343, 237751, 255872, 200037, 256166, 251521, 232585, 260834, 200422, 249043, 203691, 238313, 240530, 240654, 244626, 257690, 247940, 206565, 246265, 241419, 245078, 204276, 238381, 243593, 240293, 236678, 227339, 200153, 227515, 236027, 243597, 206493, 236596, 200388, 205490, 242640, 202765, 206424, 202967, 259509, 238726, 250423, 233962, 261472, 233751, 241521, 255667, 205711, 205994, 201395, 236270, 258852, 235973, 228269, 258805, 203636, 200102, 249158, 258828, 264846, 264125, 257945, 262463, 235917, 250317, 264428, 231991, 256088, 243924, 264222, 263289, 259157, 232354, 260344, 248735, 261158, 243373, 240900, 205676, 238538, 237404, 249611, 225901, 259072, 263145, 243915, 202081, 259703, 228062, 236181, 240425, 206452, 202271, 244129, 234365, 263728, 240004, 237304, 250222, 227499, 201613, 251595, 233541, 240080, 249325, 243101, 265131, 227175, 234871, 203742, 231840, 235302, 232839, 235202, 202066, 245371, 259350, 262073, 233792, 234563, 257400, 203513, 255017, 206288, 230689, 250630, 232971, 227723, 259632, 236873, 244568, 205381, 243302, 251231, 251342, 261211, 231568, 231402, 230608, 237209, 235414, 247559, 230802, 243633, 247278, 235352, 233532, 227591, 247526, 232982, 240028, 245560, 257522, 230994, 255467, 255864, 246270, 260252, 205166, 235056, 227693, 228065, 244244, 232351, 243746, 238783, 238569, 230099, 248966, 203402, 259135, 232693, 232340, 231582, 205805, 241773, 243720, 239814, 243061, 202357, 261883, 251388, 255173, 244026, 206606, 201091, 259727, 202516, 231638, 242056, 228420, 261333, 249508, 260199, 235637, 232566, 260942, 233837, 258402, 227631, 249851, 240138, 244695, 256594, 226033, 239636, 202430, 232597, 262453, 204558, 230566, 201019, 249091, 241131, 234220, 237541, 238262, 230147, 233071, 242816, 248293, 204543, 200880, 240691, 238076, 257668, 231087, 257597, 240985, 230846, 205906, 233469, 255014, 251768, 239303, 251752, 260171, 247778, 200928, 247337, 201702, 256680, 249030, 239794, 233428, 203174, 206306, 262890, 240496, 264421, 263693, 244050, 255334, 255428, 251783, 235573, 225384, 255843, 234954, 237508, 264933, 263851, 248664, 241594, 202532, 239865, 244049, 246863, 232104, 233350, 246190, 262322, 248538, 236809, 238668, 232987, 245770, 230082, 255741, 205376, 243243, 240405, 232168, 204592, 234613, 263727, 237971, 248069, 246543, 250651, 204922, 246111, 249169, 257386, 236951, 263006, 249066, 202518, 247927, 258939, 258727, 249536, 248906, 200097, 200822, 250924, 246743, 204689, 206471, 235946, 263890, 237515, 204586, 237590, 257270, 259920, 244103, 261463, 238434, 263365, 202929, 230098, 232101, 257110, 249295, 204910, 204751, 255870, 249070, 243084, 247969, 236005, 256047, 256910, 250864, 203662, 233143, 240460, 231546, 251030, 257905, 256931, 205970, 247338, 247877, 244890, 239864, 243604, 244887, 247234, 251287, 230217, 236342, 249874, 234446, 240082, 201792, 261809, 262592, 202964, 225494, 259800, 243392, 244595, 247445, 246628, 200284, 243640, 245262, 246055, 239424, 246102, 225530, 226946, 206041, 244740, 205560, 256180, 246911, 255714, 201891, 231643, 244294, 201514, 237293, 201847, 236843, 263681, 202836, 264839, 201205, 263719, 249171, 205833, 247259, 240826, 257581, 230461, 255070, 233812, 261280, 249730, 206746, 256371, 257299, 257494, 206384, 261786, 239945, 243165, 234686, 258879, 236868, 251018, 201867, 262506, 202160, 249229, 202046, 259965, 202393, 241426, 230799, 206086, 200631, 225865, 264900, 260850, 262444, 205987, 241164, 248286, 233617, 255171, 241007, 235088, 233574, 245402, 261097, 228555, 239499, 245376, 241551, 234690, 262895, 257108, 243151, 255150, 264116, 237570, 238232, 238507, 233294, 260768, 259897, 232179, 259556, 244450, 263819, 241786, 263496, 258145, 240660, 240943, 251836, 264593, 247427, 250369, 237008, 204748, 238024, 201497, 255851, 238499, 257018, 257372, 202343, 243006, 202418, 251697, 263810, 201757, 227143, 240898, 242982, 206489, 250175, 250200, 250112, 258991, 230924, 249450, 206531, 263824, 205910, 206212, 232407, 246366, 204844, 230772, 257648, 260758, 264110, 235941, 261055, 257227, 225320, 246306, 259847, 235121, 246118, 240570, 232445, 244006, 250067, 200924, 235852, 202631, 248637, 204269, 259431, 257661, 248437, 260744, 258129, 251019, 247921, 248247, 257107, 259829, 236344, 261451, 263461, 240275, 234577, 246385, 258577, 259388, 242325, 237115, 261131, 242235, 243252, 264952, 239606, 235866, 258903, 234800, 227179, 258024, 258962, 262433, 250505, 250913, 246533, 225423, 241181, 251644, 240903, 243037, 263919, 263917, 205477, 233630, 203864, 244569, 238800, 233341, 243840, 257115, 235344, 205567, 226815, 205257, 205489, 240175, 258834, 256444, 256424, 240166, 236565, 231589, 264745, 246941, 261694, 247169, 243971, 256850, 249031, 206734, 238902, 250964, 251472, 247588, 239931, 236470, 249135, 233142, 234451, 230042, 202699, 255717, 255138, 232529, 246396, 241324, 255962, 235558, 231232, 262521, 231525, 238096, 250892, 235819, 245114, 203290, 205305, 256975, 206213, 234323, 243824, 264610, 251525, 236927, 234239, 204365, 233270, 239761, 247414, 239472, 250411, 251004, 231240, 231932, 200605, 205775, 257152, 248559, 247866, 236645, 204341, 232333, 246197, 200156, 243736, 256813, 238553, 232667, 238315, 202668, 202689, 246804, 234497, 203547, 237211, 206777, 237472, 248617, 251082, 258047, 239710, 248299, 242411, 238102, 242928, 200065, 249747, 239825, 237939, 203710, 237264, 238709, 243653, 200274, 201397, 251627, 264908, 203291, 231622, 201121, 203496, 251202, 255404, 263282, 243675, 264886, 240404, 233823, 202326, 262601, 247062, 230027, 255176, 203421, 258911, 258428, 233790, 260569, 203100, 248055, 236934, 249786, 205178, 263012, 260282, 261764, 257770, 204870, 203629, 240455, 246278, 247127, 249682, 234118, 206196, 236668, 260217, 225973, 202823, 235213, 225888, 236209, 228556, 264034, 255701, 246608, 260002, 201172, 259222, 255071, 247956, 247153, 241269, 246718, 200416, 237818, 259848, 200268, 245418, 264673, 227740, 248599, 260458, 202920, 264353, 261446, 200650, 249196, 264036, 233241, 261504, 261198, 246034, 203940, 204587, 256922, 230793, 242058, 242142, 237435, 265003, 265073, 245343, 256884, 204118, 250345, 241273, 250013, 262561, 251363, 230609, 262866, 246933, 240149, 249677, 263739, 247692, 247687, 236521, 203187, 238931, 264991, 256622, 233769, 248443, 255388, 234910, 230473, 237034, 237628, 232451, 261515, 203300, 250666, 249796, 246813, 262722, 260294, 264392, 256029, 247654, 251372, 258461, 260706, 257509, 232850, 258508, 247178, 241216, 237468, 204788, 242040, 240523, 248706, 244221, 244587, 204654, 230895, 233443, 237650, 245060, 238953, 260932, 250375, 261213, 262761, 237719, 261024, 203242, 262438, 233651, 245957, 233566, 204526, 261183, 262138, 258596, 244311, 261521, 260285, 241938, 234866, 230578, 233277, 244612, 204603, 249543, 257302, 202535, 203358, 232980, 248132, 257910, 248126, 243326, 205086, 206594, 200214, 200734, 258840, 243324, 245573, 258929, 205897, 248756, 201806, 230256, 260826, 233813, 256882, 232895, 201194, 234703, 251308, 237338, 256612, 248339, 241788, 255346, 260003, 231259, 248446, 241831, 248743, 232444, 262985, 233593, 251716, 235356, 256363, 236012, 231095, 235365, 261751, 203282, 241367, 241213, 200421, 244738, 249381, 260336, 206876, 261517, 235857, 201343, 200970, 248425, 203952, 237716, 234445, 235660, 246161, 203641, 232560, 238067, 231344, 200787, 248804, 255802, 261879, 249987, 243724, 262913, 201099, 239475, 204175, 204140, 261762, 255172, 233844, 235908, 263530, 249607, 255940, 239648, 247301, 238942, 206016, 245032, 227319, 230219, 242567, 234153, 251529, 263409, 232345, 236745, 264968, 248298, 250786, 241724, 239832, 236807, 260214, 251795, 247434, 241605, 246056, 245471, 263118, 231012, 234508, 230690, 243792, 240431, 234938, 203036, 231457, 230896, 203786, 235500, 251766, 242919, 238793, 200810, 200151, 233085, 205357, 202397, 230240, 225625, 240841, 257996, 200376, 233444, 206188, 202419, 237376, 236327, 255938, 246004, 235775, 257598, 237920, 247451, 244380, 226694, 248995, 250474, 243642, 206675, 263600, 237879, 257253, 206362, 245202, 248771, 237255, 257341, 239411, 247039, 204872, 242743, 250342, 236086, 200476, 205724, 250972, 234308, 232226, 261811, 226325, 241584, 246777, 242845, 237664, 263559, 204122, 226169, 232076, 249821, 259964, 206419, 241781, 244064, 203025, 264300, 248891, 261934, 257647, 246256, 260813, 202846, 227056, 237185, 256014, 238803, 240764, 244404, 265211, 244659, 241130, 201748, 250487, 249221, 250091, 256063, 201141, 257013, 200776, 239318, 246071, 206813, 230011, 239241, 232966, 256136, 258046, 203416, 235288, 244430, 256079, 202161, 245920, 201233, 240884, 227483, 237363, 233552, 242123, 203948, 240429, 256380, 262980, 250459, 262771, 239742, 262542, 245205, 260142, 233010, 237526, 250958, 249915, 248924, 242768, 244112, 231241, 244777, 251304, 251410, 259460, 205706, 231569, 262734, 248391, 240049, 244553, 249575, 264177, 241201, 204808, 264903, 231341, 241586, 241334, 249948, 242126, 237450, 239527, 260120, 243359, 225590, 242821, 235616, 226802, 247124, 206599, 248717, 247547, 262933, 231800, 244872, 264601, 255327, 258029, 249166, 236237, 262069, 263709, 200662, 247865, 234068, 262494, 248652, 202774, 238052, 239638, 257147, 242989, 263020, 250811, 264305, 231544, 245745, 233392, 256334, 233628, 240176, 202627, 238895, 206536, 258180, 247980, 206383, 236418, 245491, 260012, 247531, 244681, 243419, 251561, 257219, 250348, 244935, 263594, 237309, 243444, 201152, 243702, 235829, 248789, 234474, 239876, 255671, 263149, 243742, 242859, 240749, 237491, 258688, 230867, 201630, 251740, 263603, 236276, 236939, 237173, 236756, 241153, 257802, 234668, 231188, 251746, 200793, 233605, 244388, 204008, 232028, 250931, 262483, 204888, 243591, 247697, 236759, 233335, 261964, 236290, 244369, 249462, 239585, 245628, 234415, 238916, 206393, 204521, 243383, 204219, 260456, 239769, 227348, 205946, 237076, 238949, 264658, 204138, 233261, 256606, 246742, 262397, 242727, 204098, 233944, 202946, 243009, 237960, 260885, 261406, 201347, 239074, 243512, 230725, 263016, 247690, 203667, 234898, 240208, 246145, 261795, 257532, 246981, 242089, 236347, 201700, 230989, 262151, 236748, 245935, 235048, 239776, 255121, 235133, 256304, 204838, 242395, 235970, 204856, 226544, 236935, 263154, 264128, 239904, 256104, 226808, 251456, 238296, 246874, 200433, 261126, 238084, 236694, 200997, 250083, 243525, 245740, 238696, 247650, 262154, 200475, 205171, 263863, 203555, 263532, 249612, 228258, 239488, 237785, 246209, 233265, 255097, 234233, 235109, 203861, 235012, 230698, 258693, 246613, 235021, 227665, 241188, 264821, 240672, 248197, 246360, 261564, 260524, 248365, 250684, 206088, 228090, 265123, 264557, 200806, 204066, 258133, 238269, 205330, 236153, 238759, 261662, 247115, 228233, 206494, 251060, 257872, 203669, 226939, 257520, 264689, 234882, 204699, 260139, 248687, 203041, 244665, 234518, 231971, 264748, 232036, 202834, 239570, 204444, 259624, 263085, 248509, 241606, 249862, 200958, 236162, 261262, 231472, 250825, 201353, 248530, 245831, 206477, 255477, 246661, 230937, 239055, 244667, 251381, 230933, 205768, 238123, 239574, 259333, 247364, 265135, 246738, 258802, 242145, 262749, 259298, 230628, 264801, 203968, 250346, 250720, 256199, 248041, 205276, 246829, 238719, 231814, 202338, 261797, 231258, 235175, 256669, 250756, 206550, 204672, 228307, 205541, 264315, 239897, 259849, 261483, 243564, 249057, 204282, 242374, 243680, 230269, 255733, 260752, 236040, 204647, 238127, 260412, 232060, 261815, 241916, 243772, 204997, 204265, 231253, 245279, 241791, 246219, 258986, 226689, 263599, 251279, 245845, 248379, 242530, 240558, 238395, 234721, 251792, 239869, 201390, 203355, 231461, 232114, 230059, 203078, 248179, 241760, 263493, 242016, 259926, 241209, 263942, 201009, 250145, 247803, 265092, 251005, 205115, 234848, 242155, 250615, 204560, 233643, 230517, 249369, 245894, 263874, 247863, 243823, 256634, 230910, 237555, 258687, 236067, 246364, 257845, 226564, 205491, 251789, 258977, 235374, 201142, 246715, 203129, 244134, 241853, 249573, 232569, 243684, 240338, 259728, 244734, 246037, 245359, 248857, 243098, 260128, 234082, 251747, 230619, 245544, 255838, 250241, 250374, 241217, 239037, 204454, 244640, 231288, 260133, 255320, 250589, 206003, 202100, 246180, 240087, 244860, 200750, 256170, 261032, 206765, 244666, 203364, 239119, 263980, 258743, 206558, 232474, 203538, 233907, 250208, 247936, 244685, 231287, 236129, 246722, 225707, 236424, 242517, 262383, 235468, 225337, 205925, 262846, 236479, 234097, 234107, 259527, 233708, 246135, 205557, 240462, 250637, 250563, 204256, 203872, 232326, 237961, 250556, 203105, 245623, 244757, 249434, 248976, 262052, 250875, 244913, 234561, 239328, 257222, 262178, 260116, 202250, 260842, 237051, 264032, 265258, 249803, 203352, 245225, 242742, 236472, 232355, 231999, 258537, 244334, 255666, 226278, 234040, 250735, 239135, 245106, 259336, 205382, 201085, 236381, 242593, 263535, 242615, 239517, 239462, 231209, 231475, 247950, 258109, 239632, 258987, 240904, 235052, 227265, 241478, 260101, 250286, 205247, 261112, 264859, 255816, 243904, 243241, 248205, 246800, 241620, 246473, 257862, 235718, 262392, 256207, 255184, 260230, 264161, 203060, 245305, 255386, 231377, 241258, 239555, 231212, 259585, 200842, 242190, 259720, 247629, 234949, 236975, 237802, 237168, 260798, 260025, 261009, 245090, 241674, 232374, 245322, 233058, 226613, 200862, 244297, 203235, 247532, 259621, 238737, 248412, 202350, 261494, 256398, 225870, 243291, 239393, 244745, 230919, 237975, 259458, 257397, 206611, 264493, 238587, 265302, 256028, 241020, 230380, 231413, 232527, 238669, 225145, 241951, 235270, 256585, 230701, 201466, 244792, 236646, 235597, 261201, 258108, 255019, 228096, 257340, 234169, 250343, 231517, 232382, 241627, 243096, 231897, 246526, 265033, 262375, 248363, 245029, 265042, 263610, 261779, 246018, 246347, 205966, 232188, 249875, 255376, 201801, 200845, 234459, 233755, 201950, 239059, 202991, 255976, 228057, 227516, 261371, 264384, 242880, 259277, 249970, 205518, 261186, 200886, 240193, 231364, 244577, 263314, 239968, 200023, 202623, 250515, 203729, 230105, 255104, 206055, 257216, 248477, 236621, 250603, 243986, 265222, 227890, 243206, 262229, 234889, 234083, 263086, 236885, 202261, 235824, 227093, 203772, 239870, 203853, 233232, 200431, 256861, 243087, 233902, 259972, 247079, 234678, 205512, 231587, 242294, 239795, 201914, 264069, 243891, 250960, 260246, 201351, 258032, 205250, 236374, 257688, 245474, 257202, 249024, 263822, 240362, 203916, 263908, 200615, 257746, 235565, 201635, 235377, 260856, 227097, 234218, 248051, 250311, 240143, 245898, 257789, 237824, 246726, 202498, 202099, 238308, 230559, 205333, 206038, 231002, 242479, 238667, 256781, 244743, 235308, 243644, 200604, 203594, 263861, 234507, 244689, 202337, 244630, 247845, 240871, 234708, 242072, 234490, 203298, 231108, 258907, 249149, 230312, 251503, 238560, 256175, 261289, 262611, 245204, 201503, 257761, 226046, 206396, 226492, 238546, 258604, 238055, 242635, 248715, 263117, 240819, 250410, 240941, 259129, 228276, 249945, 249365, 243025, 238045, 262439, 244201, 248776, 206609, 234435, 262530, 200088, 206465, 203500, 240050, 264290, 250764, 236559, 234283, 236052, 205340, 203755, 230188, 233561, 200179, 241856, 256105, 246840, 264086, 232205, 237060, 255311, 241694, 232119, 243065, 244806, 243147, 262149, 248276, 255484, 246618, 250496, 257081, 259567, 200901, 233934, 241056, 238727, 235276, 230686, 200191, 235921, 237796, 237178, 249910, 240326, 234354, 258916, 245640, 205422, 230890, 246913, 257242, 231777, 201810, 236301, 202517, 200571, 236781, 248195, 264710, 262224, 261718, 201576, 241078, 242356, 248730, 246361, 256277, 238631, 242237, 204331, 232394, 249657, 240216, 242559, 205734, 205623, 257830, 238411, 258703, 239667, 204837, 242546, 243896, 250201, 202486, 227677, 201146, 239087, 230203, 264947, 238564, 249674, 230187, 263288, 244110, 243967, 204150, 206802, 239607, 235763, 245565, 241948, 239012, 237190, 237049, 265020, 243446, 233185, 263300, 246782, 263122, 256787, 205047, 203695, 240537, 243008, 249540, 203626, 249694, 263311, 246124, 203752, 243156, 231849, 237120, 262894, 248176, 262015, 227913, 240397, 255293, 206434, 206285, 234246, 237299, 240229, 262681, 233620, 231161, 206130, 233771, 265215, 247731, 259356, 236234, 244703, 232050, 202526, 242760, 204683, 264247, 234853, 258534, 257285, 235249, 238253, 261865, 246079, 232127, 264120, 259213, 231531, 239502, 226530, 249570, 255749, 241257, 250807, 264115, 249119, 237829, 264836, 238863, 251660, 201505, 247016, 240464, 201421, 250134, 205102, 250065, 261302, 236770, 225508, 264203, 226804, 251106, 241516, 235646, 242969, 236182, 245822, 255491, 248220, 230829, 259148, 247688, 232461, 205395, 200287, 238355, 255769, 235094, 250196, 260982, 250355, 259000, 230286, 202125, 202813, 260601, 231081, 251512, 239516, 256303, 247354, 236846, 263385, 226351, 203272, 234331, 261286, 261454, 247777, 200273, 262938, 236236, 234591, 232129, 260780, 225275, 205710, 206499, 251275, 255118, 242872, 260972, 233276, 246857, 203672, 233238, 234409, 200260, 246505, 249990, 232692, 232500, 247304, 265313, 247455, 201680, 249350, 236714, 250858, 261480, 251355, 261604, 262337, 255947, 233712, 225411, 258383, 246847, 264118, 264791, 226499, 230785, 251178, 237546, 238739, 234243, 260290, 236580, 257526, 237565, 241404, 244020, 250429, 204395, 239314, 206514, 250166, 246669, 260725, 262569, 246324, 255682, 202227, 238514, 248892, 233014, 264277, 263073, 263929, 244173, 247355, 238316, 249219, 260672, 232123, 256834, 255318, 264796, 260530, 231652, 237478, 240751, 263376, 251434, 262275, 245509, 206521, 231731, 245392, 205753, 242988, 203678, 243636, 232012, 258490, 200538, 200705, 226332, 243195, 231016, 240673, 239514, 203168, 249258, 238170, 256340, 206024, 264848, 245712, 265050, 248820, 244036, 246491, 225929, 236294, 251175, 228198, 238406, 233448, 238443, 259868, 261613, 226287, 262344, 227167, 233665, 238817, 258407, 251398, 201842, 246136, 238795, 258885, 232817, 243019, 243697, 244486, 240499, 259314, 262832, 263120, 206503, 237525, 258158, 201766, 203997, 243852, 204959, 242750, 201027, 249464, 205907, 247932, 248828, 238116, 203409, 258880, 255511, 234861, 264508, 251068, 201302, 200835, 233995, 256672, 203588, 230114, 258437, 203255, 248399, 230428, 200918, 245622, 240062, 260034, 200220, 240507, 236713, 240118, 259139, 250823, 259573, 247678, 256053, 239873, 235843, 246872, 234660, 205377, 238031, 230356, 200087, 264747, 244591, 238624, 263112, 205860, 243207, 239949, 232741, 200902, 203878, 257377, 264974, 225300, 247188, 231175, 264188, 226137, 258812, 201376, 200595, 257116, 256342, 250264, 244428, 246299, 201156, 237542, 241946, 240853, 225840, 237094, 206696, 239192, 247952, 238841, 201693, 247327, 241212, 250506, 261332, 230168, 205618, 200265, 249375, 260617, 235532, 242915, 250819, 205362, 245504, 228195, 206573, 251359, 240584, 262034, 264507, 256160, 203353, 241017, 245448, 201035, 241945, 231330, 256566, 246481, 231056, 201898, 227439, 234913, 237598, 234326, 260939, 262997, 255192, 203006, 262929, 205072, 262020, 241732, 201236, 244632, 240008, 255603, 259203, 203679, 244284, 244391, 257783, 241282, 242656, 225198, 204343, 200566, 245093, 201591, 258146, 239953, 205549, 256684, 233176, 225383, 251806, 203309, 203359, 231726, 243913, 246081, 237924, 245848, 240704, 263045, 241988, 240525, 206520, 259493, 236838, 206666, 237665, 206165, 236766, 261503, 240650, 248309, 251427, 243908, 227710, 244033, 232813, 232507, 237815, 255989, 232044, 263672, 244644, 204410, 256101, 205455, 204990, 258645, 243408, 242251, 263965, 261075, 203889, 264259, 242003, 258774, 237206, 202380, 244466, 240141, 230052, 235655, 238257, 257359, 243574, 256145, 201242, 241569, 251137, 250322, 250717, 249064, 237237, 255018, 237425, 203412, 204571, 256383, 249337, 251158, 261566, 259691, 232705, 232573, 257102, 249065, 237227, 242858, 202417, 226546, 240346, 226559, 234165, 256125, 239881, 255356, 265217, 231374, 243454, 246061, 231948, 242496, 260811, 258619, 239914, 206416, 234669, 231064, 238240, 247633, 206405, 249516, 201061, 234963, 234594, 245057, 257319, 242125, 226785, 235620, 262517, 232489, 206749, 251607, 245369, 232650, 250878, 249063, 241524, 242601, 240812, 256081, 250889, 235914, 260434, 260238, 257518, 238903, 262570, 248822, 259818, 249385, 241650, 247881, 239495, 204615, 206525, 264576, 247878, 201368, 249178, 260378, 242856, 231187, 230630, 263887, 225526, 202438, 230767, 233726, 235074, 232177, 247623, 234817, 232797, 230028, 244052, 226717, 206060, 232944, 231290, 255145, 200792, 256559, 262010, 262745, 230191, 230670, 264216, 247524, 251683, 205866, 236755, 243890, 257391, 230173, 239060, 231600, 260533, 250192, 201666, 200586, 225050, 231798, 235139, 240247, 251460, 258811, 205123, 261104, 233182, 231772, 231542, 239970, 248524, 201794, 231974, 238214, 206832, 245495, 235934, 234455, 244999, 200461, 240803, 255226, 240526, 258222, 262499, 258541, 234236, 248115, 227243, 238473, 262919, 250282, 237613, 201089, 237246, 237333, 260526, 258692, 241113, 235912, 259654, 243814, 248409, 250446, 228108, 264313, 240248, 205397, 257507, 240074, 242931, 250092, 256460, 233642, 236862, 247973, 237261, 232151, 255151, 238926, 259282, 243582, 265303, 248905, 244191, 260011, 244920, 262316, 257825, 262779, 202212, 230666, 259231, 245900, 243732, 259644, 200445, 241308, 257158, 201699, 235515, 236453, 206630, 240579, 263416, 205639, 255331, 242007, 238818, 233785, 251671, 264092, 205683, 242151, 243676, 236238, 259682, 248661, 246168, 240185, 202384, 243406, 233327, 241501, 240838, 227597, 228422, 243453, 239566, 236907, 240984, 230192, 206512, 250373, 262426, 261532, 204798, 230316, 261950, 255630, 247735, 238402, 247013, 249720, 243333, 261643, 263227, 203000, 256777, 237308, 204720, 235754, 204764, 230586, 259029, 248251, 257179, 238897, 242129, 244309, 237171, 243227, 232593, 239649, 245785, 201074, 204736, 263671, 243945, 236578, 200994, 202633, 245398, 246398, 239695, 260021, 263552, 256319, 248291, 238822, 242993, 236940, 241709, 228479, 235901, 243153, 206496, 233780, 205891, 232477, 230879, 239989, 231227, 237549, 261796, 255053, 250606, 203231, 261387, 265295, 230006, 236644, 206485, 225643, 256140, 243798, 233431, 206104, 244145, 204643, 247236, 256933, 233970, 242020, 250582, 239603, 202543, 258607, 258408, 261833, 263854, 230273, 206046, 249308, 240748, 236116, 238932, 255217, 244048, 230023, 244259, 245193, 204437, 248131, 244058, 206451, 255232, 262035, 256289, 243937, 259025, 240605, 255325, 259681, 231483, 205681, 236824, 202434, 237957, 237128, 255576, 247396, 203498, 241572, 238146, 242194, 202958, 239335, 230321, 243409, 233650, 259102, 256654, 244885, 246254, 244678, 251685, 200379, 228441, 240709, 265194, 234875, 247913, 249665, 260324, 261822, 258336, 203701, 200291, 237678, 246876, 239467, 259094, 247564, 201340, 265144, 245340, 200339, 249244, 232939, 233560, 235348, 201349, 205445, 233248, 257754, 256855, 249591, 259660, 261184, 246179, 248527, 251210, 261448, 203634, 240649, 245773, 257747, 236777, 262951, 258224, 201070, 256382, 200791, 226302, 241250, 243940, 239368, 243306, 205045, 204630, 248800, 205740, 205747, 237536, 236888, 263847, 246886, 245698, 203597, 244089, 235648, 247366, 260500, 238725, 204644, 243660, 246340, 201259, 245941, 251358, 238909, 251797, 258427, 249498, 263305, 203312, 248129, 241168, 243843, 261041, 200020, 251248, 239464, 241402, 246545, 244045, 235102, 257880, 258524, 237326, 259353, 205458, 205736, 206843, 256968, 259004, 239399, 245842, 248038, 205344, 236588, 260937, 231219, 247848, 248395, 248589, 206629, 203418, 261238, 257657, 261197, 244156, 263176, 233211, 249710, 231146, 234506, 248971, 260494, 261792, 227481, 261315, 263208, 263320, 242923, 261294, 201876, 242452, 255407, 246822, 258498, 235214, 263520, 242604, 239448, 235905, 202116, 248452, 258494, 237506, 248208, 202488, 236617, 258212, 262931, 265019, 237110, 241540, 243418, 240551, 250984, 258791, 260241, 244431, 260616, 256418, 205719, 204333, 235634, 262775, 203115, 232278, 205306, 225302, 251478, 242575, 241396, 250584, 203684, 259351, 201932, 264503, 242061, 246113, 239746, 250397, 239184, 258078, 250923, 232539, 242197, 260446, 232640, 204141, 260957, 204494, 205699, 255020, 263523, 206186, 248920, 236612, 256980, 205628, 260240, 204559, 255369, 233516, 232204, 245922, 241236, 233155, 232758, 262358, 241281, 249552, 263090, 263373, 240333, 238014, 247067, 262176, 230391, 255471, 237639, 264566, 206249, 232465, 245679, 255683, 256472, 203053, 205234, 234684, 240315, 247394, 245559, 230205, 261682, 236175, 251727, 232133, 260460, 232321, 202874, 232838, 226665, 264265, 200677, 236041, 231698, 243122, 241371, 232285, 206341, 263807, 227619, 255690, 243271, 241777, 262132, 264105, 244022, 201854, 261348, 241059, 245489, 257873, 255524, 204621, 256468, 255902, 225502, 257038, 233838, 204677, 241354, 206868, 203337, 236929, 262491, 256542, 256602, 239909, 234346, 243299, 243912, 259698, 243657, 205437, 205021, 204404, 260453, 230166, 233252, 232746, 203228, 235931, 235851, 248139, 202327, 255808, 239200, 248500, 232029, 257972, 264824, 248938, 242279, 200296, 250836, 251174, 226857, 236695, 234880, 200720, 261324, 255782, 255036, 246954, 262757, 205559, 249215, 226670, 202607, 243550, 235325, 261938, 241743, 259312, 226152, 236916, 238575, 258849, 235290, 240520, 233583, 265065, 244692, 204967, 230836, 258468, 259289, 232358, 234127, 257800, 250585, 201470, 206632, 257989, 233872, 246013, 203910, 239507, 262501, 205324, 236161, 233728, 259118, 262405, 202288, 205810, 205703, 237249, 256738, 247452, 248992, 257382, 264814, 225946, 250364, 260714, 255921, 203911, 200365, 256273, 263845, 258873, 235479, 264205, 232633, 201213, 237438, 234296, 232078, 233105, 248699, 246686, 250842, 262597, 262264, 236595, 243692, 248869, 205730, 248108, 200235, 248101, 247513, 236139, 232651, 251100, 204578, 232810, 245809, 255025, 238998, 257217, 248958, 256272, 238482, 241030, 250569, 236210, 261352, 242668, 240843, 248901, 204415, 264053, 232116, 261684, 257442, 202159, 235753, 258433, 256193, 239466, 227435, 250601, 236795, 257053, 264051, 260567, 257366, 251734, 201001, 231957, 260145, 233881, 250693, 240214, 241064, 206510, 249134, 247515, 233819, 261492, 234625, 259702, 249413, 264242, 234840, 243572, 206812, 203643, 239219, 260348, 204629, 262996, 200398, 250381, 241893, 230947, 258924, 203474, 233758, 238852, 234557, 243851, 242920, 233886, 255695, 262194, 242778, 234994, 231870, 256169, 230060, 236997, 243855, 264160, 234764, 263757, 248842, 231101, 241638, 227671, 231443, 261961, 227822, 256234, 246988, 232819, 239376, 201676, 261117, 237741, 201976, 240913, 245528, 243775, 201901, 259651, 202196, 237442, 236817, 206408, 264650, 202381, 250542, 259558, 206469, 234037, 246587, 243511, 262688, 264241, 226854, 240569, 200521, 237455, 236949, 251426, 257833, 243503, 244150, 232347, 244898, 263124, 251064, 260107, 206059, 261834, 233218, 256461, 263968, 248602, 261824, 242494, 237058, 242541, 246930, 245772, 242557, 201678, 260754, 233572, 246762, 233207, 264887, 246951, 238766, 238670, 235055, 241220, 241775, 235351, 234235, 204832, 239291, 240366, 238339, 239976, 260297, 248515, 247715, 233167, 248193, 237037, 263614, 262400, 258135, 203230, 258628, 204850, 249939, 263844, 240424, 245453, 245422, 261413, 264979, 227952, 236138, 206693, 237635, 257506, 204432, 231929, 250271, 261912, 238089, 239788, 255068, 256051, 203873, 245621, 201458, 248566, 246614, 240304, 241913, 245252, 236022, 248553, 265098, 244111, 259026, 205846, 246531, 246577, 237922, 234299, 245443, 264398, 261922, 242141, 248556, 248416, 242375, 206064, 203791, 203140, 205391, 262359, 260786, 262496, 230043, 231410, 235089, 240466, 205282, 244125, 246487, 232811, 261222, 241018, 228053, 262331, 232937, 201053, 241850, 256174, 236194, 242258, 264470, 200657, 248551, 228177, 242584, 261765, 251604, 236944, 248649, 237151, 247256, 202590, 206087, 256805, 261651, 256591, 245166, 205816, 203798, 227621, 206678, 260067, 245427, 233979, 241601, 263592, 233802, 262443, 205227, 206585, 232656, 259430, 233656, 257251, 250818, 259172, 244180, 247018, 240594, 257330, 240321, 260358, 259536, 227013, 255421, 237253, 237201, 248561, 205352, 233578, 242180, 251350, 264640, 250121, 237833, 232167, 260398, 232735, 250969, 265064, 244365, 202776, 238556, 258519, 255120, 235289, 235642, 247505, 259075, 239041, 200434, 202465, 243123, 260109, 242228, 206644, 238971, 248217, 243874, 238158, 201258, 265182, 248380, 255294, 238835, 239484, 200247, 245880, 243307, 265202, 232877, 247056, 260693, 230791, 250568, 264387, 245500, 258200, 236348, 245594, 250915, 235123, 233624, 251501, 239707, 257916, 230307, 205698, 260293, 226734, 241908, 250257, 244834, 227680, 233855, 201900, 233504, 260395, 239942, 259415, 242245, 264533, 245263, 200565, 238871, 263242, 240320, 265000, 263394, 234593, 244053, 242976, 247282, 243157, 234651, 234464, 258709, 204004, 239573, 244633, 265293, 235910, 240844, 246695, 200767, 264760, 262553, 260335, 203848, 230861, 250815, 203362, 245391, 247149, 262602, 250238, 237313, 245338, 231238, 237081, 249986, 249383, 260048, 245467, 202781, 247594, 226557, 234198, 233949, 257226, 248343, 233409, 250415, 203217, 203007, 234890, 246199, 204383, 204953, 205813, 255333, 205179, 234564, 200820, 256191, 227442, 263661, 233618, 250088, 237591, 259911, 232220, 256396, 233535, 257080, 258665, 235717, 200236, 248432, 260249, 256325, 264564, 238745, 225709, 242038, 234050, 251010, 205741, 255135, 206462, 233679, 262856, 200285, 235104, 264607, 261524, 206538, 256369, 248557, 231488, 237585, 242360, 242720, 238467, 231169, 204019, 258378, 262243, 249869, 255596, 247720, 261999, 244105, 246519, 228306, 257559, 257363, 205519, 235950, 264291, 236834, 237881, 243919, 206422, 258649, 246213, 251292, 201982, 250932, 250560, 228013, 239262, 247556, 261978, 259452, 249924, 250294, 263324, 241942, 240359, 200171, 246424, 257207, 233972, 242206, 238656, 201386, 249185, 262707, 256796, 226135, 204581, 237306, 249527, 259422, 204197, 244217, 249975, 234595, 202558, 259568, 235253, 240130, 238891, 263182, 241411, 248536, 205937, 236564, 258281, 201909, 256801, 234059, 263817, 248434, 230113, 203817, 258198, 230837, 249750, 255751, 263036, 258471, 246315, 236425, 230171, 233631, 239386, 247446, 230526, 264641, 206597, 251319, 241384, 206179, 205205, 243005, 242616, 235757, 241214, 244120, 250213, 249331, 242266, 243394, 239618, 230859, 247196, 255292, 264591, 246264, 239813, 248102, 260110, 256823, 239929, 232974, 201169, 263247, 201000, 233505, 237849, 230438, 206149, 205105, 249187, 201573, 249287, 261124, 235525, 201809, 243797, 265329, 250628, 231090, 233319, 262155, 205868, 244864, 245525, 256458, 201307, 247976, 233150, 251375, 233328, 204690, 233285, 248676, 204839, 200989, 256248, 203441, 247502, 202831, 204277, 255562, 255267, 230503, 242852, 235881, 241444, 239693, 206151, 231208, 257393, 247379, 235808, 202452, 238529, 234222, 234571, 202241, 200107, 240144, 236225, 241806, 250533, 202115, 260735, 203483, 238369, 237215, 203083, 232138, 255316, 241649, 255475, 235257, 204489, 265190, 261243, 239134, 242201, 256432, 239133, 250030, 255513, 203033, 239286, 245553, 257355, 201770, 255591, 255109, 258719, 261805, 204817, 245699, 233705, 206698, 237032, 263910, 245631, 251276, 245194, 237175, 202328, 248955, 256337, 239841, 233439, 259576, 249029, 255486, 238095, 246598, 245945, 247734, 245749, 232609, 238886, 204384, 248060, 230679, 263625, 235150, 249087, 244197, 239342, 256330, 242460, 258304, 201021, 246639, 228073, 233688, 242526, 201650, 239463, 258547, 249538, 242555, 244508, 200143, 230108, 239139, 234328, 244065, 234140, 247363, 263060, 243436, 243778, 240210, 242449, 249151, 250844, 239775, 204345, 201721, 258848, 205804, 236709, 202166, 260444, 200460, 241583, 233456, 240322, 205817, 243289, 242327, 251008, 246271, 237130, 205563, 249438, 204884, 241881, 261431, 247648, 205762, 225367, 230447, 260608, 242529, 232555, 264129, 249772, 200216, 241244, 248712, 201793, 201575, 244638, 241463, 241869, 200778, 235955, 262988, 259915, 259537, 236602, 200479, 248618, 242428, 246771, 202235, 230080, 243220, 243567, 256070, 255833, 233608, 260554, 234960, 203045, 262489, 258351, 233993, 234042, 259523, 236330, 245977, 245063, 251531, 203299, 250169, 263619, 204134, 262536, 263768, 235440, 257948, 257275, 203812, 232885, 238016, 241333, 264318, 247917, 255103, 205981, 250168, 243177, 256951, 263974, 243965, 246757, 239529, 256429, 248748, 246078, 236062, 262080, 245416, 249602, 242598, 265137, 243450, 242465, 235148, 233050, 245321, 264280, 234468, 242514, 245932, 260851, 237826, 248310, 204469, 258797, 264941, 246169, 230236, 226932, 250096, 239613, 242431, 235162, 233655, 242971, 238455, 257307, 237189, 249004, 237970, 239594, 258026, 243944, 251198, 236786, 239941, 251833, 250840, 243686, 231114, 231917, 202550, 205312, 230645, 246877, 237453, 260119, 201305, 233399, 245632, 203343, 235900, 242132, 249574, 261274, 244900, 248829, 261437, 262409, 232113, 235502, 256270, 259174, 256421, 247760, 238348, 201272, 240019, 233066, 205773, 242116, 243296, 243038, 204304, 260041, 261939, 263361, 243190, 250269, 243107, 202547, 248277, 242678, 246839, 203246, 235194, 201381, 241016, 243314, 238446, 264987, 263059, 206656, 231989, 263688, 241714, 205784, 241560, 247561, 242686, 238447, 204170, 265121, 240976, 245607, 241813, 235322, 250737, 245360, 251293, 257758, 244535, 246376, 233082, 233597, 231034, 241754, 242570, 263786, 206247, 203367, 247852, 237040, 255537, 260762, 251047, 204236, 262297, 260320, 263580, 257267, 257445, 244636, 206338, 246562, 233565, 238380, 230699, 256890, 257722, 265268, 235769, 251376, 236896, 249996, 226553, 251447, 247299, 250854, 231661, 250928, 200568, 234579, 201286, 257104, 202051, 262286, 257892, 245987, 264377, 250116, 244618, 242135, 250085, 234071, 261195, 261845, 225077, 264288, 233918, 237744, 247765, 262346, 232783, 247014, 259591, 246105, 258990, 260519, 231530, 228106, 236287, 245802, 258606, 262534, 257662, 259381, 234592, 230488, 264537, 235621, 232025, 249461, 234798, 260043, 248000, 244600, 260552, 257554, 244723, 250274, 202577, 251622, 247801, 234194, 236682, 251197, 250649, 246319, 205169, 243926, 243953, 260143, 225692, 243073, 204702, 255586, 240863, 256783, 243430, 251084, 238425, 256440, 206773, 258789, 204506, 203197, 234757, 233584, 234841, 242585, 243290, 249893, 238122, 242617, 201624, 257550, 235729, 247112, 263879, 261702, 247501, 240001, 258389, 263997, 241156, 243112, 251218, 202462, 261172, 233165, 204928, 249711, 230302, 237481, 263226, 231391, 239863, 242578, 246572, 256857, 264879, 241091, 243343, 241112, 233740, 250793, 261533, 256483, 243795, 265183, 238823, 238163, 249693, 248004, 250405, 202638, 236231, 243440, 231936, 206235, 245163, 201771, 201596, 245056, 248635, 241935, 238136, 245005, 240454, 201524, 206804, 239151, 235721, 206791, 232689, 251145, 259929, 247456, 256084, 238302, 259613, 235077, 243161, 251744, 226193, 246495, 249624, 261474, 259002, 202599, 248719, 248430, 239149, 257779, 206483, 206743, 262423, 206674, 241972, 206139, 238205, 261994, 245444, 237005, 251036, 245743, 249957, 203688, 258406, 246563, 247168, 236945, 228129, 262844, 238583, 235134, 251325, 232084, 206501, 206507, 260690, 241651, 258039, 237663, 231082, 239177, 264719, 238303, 235040, 200200, 248270, 201856, 247060, 238299, 246085, 230007, 239506, 233454, 257134, 246888, 261047, 259835, 245175, 238525, 265010, 251502, 246805, 205513, 240574, 203430, 262121, 256995, 233224, 238652, 247324, 235347, 263789, 238201, 206033, 245031, 231393, 241473, 251266, 202451, 244788, 233078, 259559, 247350, 242788, 201264, 201601, 262859, 231452, 244273, 234414, 251228, 237966, 233310, 255461, 263077, 234276, 230112, 230903, 235838, 243605, 232632, 259380, 203915, 201252, 235768, 233766, 234478, 242193, 233381, 235203, 250856, 243520, 238842, 234835, 240562, 200328, 235311, 249983, 245316, 242308, 244154, 206807, 250143, 260592, 247595, 249950, 247070, 248554, 202907, 244821, 237401, 238000, 202783, 230850, 239439, 261383, 242476, 259757, 251446, 262604, 262431, 241312, 244074, 251803, 204429, 256733, 263899, 235895, 243868, 262615, 236436, 251110, 230086, 235886, 228546, 235771, 255797, 201016, 258820, 236810, 255966, 200643, 202287, 201393, 248588, 230513, 239799, 249124, 251356, 233362, 242569, 204223, 201992, 249459, 247874, 201314, 233109, 249523, 262233, 248267, 237774, 201511, 241914, 235350, 242186, 232290, 261695, 243201, 242528, 236189, 249802, 238933, 248916, 257029, 261122, 242818, 232581, 200425, 200173, 231333, 249170, 239706, 200405, 205662, 232431, 233460, 206395, 244293, 231400, 233793, 202256, 202746, 238784, 203768, 250762, 261462, 206539, 237900, 243522, 248408, 241761, 226248, 225650, 200900, 256753, 246187, 250780, 258277, 230871, 231155, 226177, 245052, 241515, 202540, 237057, 241653, 249455, 234716, 248870, 226860, 230424, 247351, 205420, 251272, 259842, 242777, 228281, 262907, 206684, 240384, 255762, 249077, 234842, 201068, 264482, 245863, 231617, 234005, 255010, 234626, 202355, 240241, 262708, 241954, 250886, 244305, 249205, 264868, 239330, 234058, 245981, 264688, 240975, 201315, 233104, 238365, 239683, 203649, 263431, 241585, 240813, 261335, 251057, 233084, 264124, 247982, 262231, 240461, 236663, 233394, 261331, 230282, 263306, 232203, 235233, 232289, 264047, 202339, 247392, 261375, 202667, 255162, 251719, 236300, 245792, 226481, 251043, 225364, 259781, 256718, 261123, 234665, 242513, 240098, 234267, 205426, 235395, 231954, 232929, 261358, 243568, 206858, 237295, 242053, 247334, 239655, 256100, 263299, 260374, 233531, 261277, 258961, 239919, 248027, 204360, 240319, 263516, 246393, 202190, 245192, 204379, 263973, 236566, 236051, 238748, 203865, 263371, 245436, 203855, 262827, 235643, 231045, 240694, 244379, 238955, 260999, 238042, 245209, 205241, 245054, 203624, 260291, 263626, 205725, 206354, 245767, 250045, 206374, 257788, 235505, 263515, 204461, 239664, 256862, 255307, 240490, 240663, 244172, 227520, 206760, 256881, 240794, 206297, 231174, 256443, 255800, 203261, 233204, 247025, 255261, 242813, 205114, 255153, 244251, 227239, 249550, 251417, 202642, 243372, 258877, 234076, 240519, 261535, 200237, 265029, 231620, 257183, 244905, 260200, 257700, 240817, 241187, 255016, 235364, 256840, 247398, 237791, 237486, 239729, 264877, 249687, 226191, 226836, 249995, 260922, 258711, 259734, 246875, 243951, 232022, 248670, 256973, 242878, 230189, 202399, 228506, 239228, 230684, 236526, 256814, 201736, 263503, 200892, 232753, 258077, 232135, 262087, 246585, 244166, 206256, 247199, 239172, 237771, 231097, 259349, 206785, 259398, 249997, 259284, 234126, 255750, 234527, 227563, 258143, 237059, 260935, 205242, 235979, 255551, 236599, 236864, 233887, 230047, 251413, 233288, 205908, 247291, 244773, 242300, 263657, 204778, 241309, 261251, 204969, 246399, 231314, 231637, 245010, 235003, 225657, 237965, 231883, 243970, 203101, 200177, 203030, 227190, 238153, 240715, 202863, 245753, 230239, 244117, 233326, 255775, 263140, 246977, 239783, 231014, 251322, 232389, 226315, 245428, 259841, 232662, 248250, 264727, 255008, 233573, 202285, 200193, 233364, 263743, 201254, 245437, 250558, 235475, 231975, 259179, 233986, 241014, 228048, 226408, 238958, 234325, 241670, 260548, 206320, 263759, 236136, 226502, 241055, 248592, 256436, 247796, 248854, 243197, 204765, 264680, 200675, 232207, 262959, 264857, 249513, 244951, 256412, 239239, 257334, 200741, 256456, 232449, 258763, 234627, 237964, 259605, 246186, 247244, 249553, 249859, 232620, 230838, 239093, 243075, 231280, 249208, 201783, 201298, 260362, 201482, 258359, 264310, 238078, 203022, 225001, 234091, 202694, 248222, 243054, 240014, 260024, 246569, 242558, 226968, 204836, 202217, 236854, 200334, 200308, 234001, 226713, 242174, 237641, 234417, 242887, 255375, 228020, 236430, 202671, 245451, 244029, 244377, 227223, 264661, 233279, 244795, 259876, 226400, 202975, 255708, 227666, 259238, 236398, 246142, 249428, 244245, 241618, 246668, 248680, 243337, 236475, 245266, 239220, 261656, 255352, 241448, 227588, 250668, 200895, 237864, 241089, 257186, 257336, 233865, 226687, 206722, 257337, 236077, 256943, 232141, 232230, 235720, 241668, 233680, 264319, 202015, 239937, 205435, 257024, 247516, 231378, 250779, 204366, 235827, 235622, 256945, 234293, 200125, 203652, 237276, 240876, 236045, 204243, 235383, 201904, 243999, 241433, 246498, 225760, 230344, 259982, 258866, 232747, 264379, 242418, 260009, 238282, 246031, 264761, 247286, 263158, 230163, 226150, 263139, 264775, 239316, 255284, 245363, 241280, 263588, 264636, 261254, 251274, 241706, 243629, 206319, 245675, 202960, 234819, 264084, 201350, 230760, 237208, 257810, 258810, 263285, 240016, 238828, 241641, 203084, 256655, 206226, 256869, 259579, 230729, 232701, 261543, 251093, 259167, 239958, 231303, 242651, 261501, 200204, 263401, 232418, 250077, 231920, 201661, 238191, 246268, 236892, 201890, 230540, 230568, 230354, 240012, 236402, 203939, 203307, 255559, 205939, 238006, 255556, 242691, 249239, 248314, 202455, 245440, 230833, 255498, 239310, 205842, 248156, 240788, 246300, 241958, 241241, 247599, 262340, 258928, 226367, 251318, 261639, 231170, 256604, 204041, 237391, 241468, 256588, 261234, 241353, 256799, 260748, 235346, 232899, 244614, 260465, 239124, 232379, 250427, 248084, 242162, 201925, 260265, 260627, 233600, 226014, 255072, 206361, 255665, 238981, 233129, 236336, 244812, 200626, 235593, 225260, 203945, 251781, 237145, 238966, 265278, 233890, 250565, 227012, 256032, 246241, 239025, 204174, 255439, 262935, 202987, 250812, 262986, 260527, 249700, 237456, 202371, 236014, 230742, 263991, 246725, 201168, 241270, 232458, 261723, 240024, 246784, 234980, 205944, 247313, 261284, 238309, 246953, 242851, 236861, 249872, 262709, 233685, 241999, 242334, 202530, 258144, 234215, 248534, 236960, 237485, 260902, 203584, 202940, 263698, 263884, 239772, 248897, 245662, 245669, 256098, 262943, 232357, 225045, 256006, 239346, 241409, 240993, 231744, 231555, 201592, 202012, 250084, 204371, 256021, 243551, 249100, 247890, 235962, 242899, 251492, 246403, 243700, 255146, 237490, 255583, 239973, 246936, 259685, 237134, 238934, 251090, 263078, 233616, 257232, 235155, 241503, 260105, 264082, 234321, 237210, 202873, 235172, 250454, 234779, 205341, 245170, 249846, 246978, 239845, 256221, 264227, 204645, 260209, 240097, 244990, 225205, 248262, 243111, 261741, 265223, 243654, 235402, 249227, 228040, 258660, 234714, 248574, 257613, 261931, 240582, 246912, 236185, 251316, 206326, 233639, 256264, 250105, 251184, 205284, 232734, 233013, 255122, 245813, 239471, 241008, 234166, 262288, 247059, 251128, 230620, 263113, 251808, 205756, 249763, 245620, 256434, 257617, 248467, 228347, 230915, 246489, 263402, 263808, 250466, 248400, 251721, 243264, 263168, 246579, 225767, 204224, 248032, 259788, 203717, 259371, 257313, 242855, 256993, 249073, 263685, 236974, 230215, 244215, 260005, 251459, 248155, 233629, 247373, 255547, 245424, 205595, 233513, 205592, 200205, 200768, 265126, 238989, 247849, 245747, 257172, 248512, 206450, 247047, 246191, 230590, 226759, 247309, 205230, 204325, 233717, 232826, 257604, 261039, 250648, 249754, 257268, 257674, 237738, 260196, 206626, 258926, 238353, 235309, 264386, 203832, 260874, 201602, 246328, 261133, 258521, 246307, 258327, 226389, 231927, 251187, 255079, 206335, 256082, 248065, 256488, 249564, 257959, 236743, 226453, 226911, 250327, 243719, 235227, 241225, 235577, 262053, 251225, 260280, 231583, 234806, 251813, 234761, 230801, 246581, 258326, 239860, 240292, 262577, 206718, 246445, 262093, 234024, 237636, 231270, 257472, 248746, 258023, 206872, 231125, 256295, 231835, 206581, 255159, 230194, 264153, 227246, 247253, 235586, 231102, 255890, 258245, 251543, 231166, 230457, 234307, 261341, 244928, 248203, 235226, 259970, 258500, 247851, 206322, 205183, 233257, 248013, 240781, 247869, 262909, 241029, 241841, 257061, 262407, 241753, 245647, 206731, 239103, 242137, 232582, 233579, 264729, 205708, 249380, 243404, 236303, 259519, 239609, 258931, 241713, 249154, 255548, 230267, 259616, 238837, 261178, 233634, 264367, 255577, 203586, 260045, 246211, 262238, 200251, 255207, 248628, 203928, 233404, 256464, 263677, 258525, 232552, 242169, 206106, 259156, 231376, 263841, 264540, 261236, 237403, 204975, 263434, 202889, 233636, 205882, 204321, 227207, 202886, 232977, 257820, 239396, 237129, 230676, 235220, 248803, 257422, 233673, 260577, 240577, 255623, 259060, 263389, 246178, 258651, 251530, 205090, 240681, 260198, 244393, 230242, 250254, 232014, 249160, 246731, 260431, 250082, 238951, 203322, 234583, 237923, 239957, 255595, 240585, 249198, 203534, 238972, 200181, 246400, 262915, 258419, 230044, 263360, 260783, 262860, 265100, 257857, 232720, 233496, 239333, 251602, 264766, 246269, 260766, 246689, 238152, 245674, 264822, 236585, 206390, 244669, 261308, 235044, 247640, 226484, 231484, 247518, 241704, 246503, 204249, 228229, 256015, 260751, 243816, 261681, 246185, 235186, 263477, 236376, 227797, 263283, 250157, 251257, 228490, 225309, 235981, 231756, 244620, 250810, 205176, 259803, 247625, 236084, 250027, 239113, 250006, 248555, 231072, 234449, 250641, 234442, 239293, 244629, 259366, 205553, 201358, 257799, 249561, 262462, 226549, 251489, 245618, 234932, 262605, 248573, 234093, 237356, 245447, 257425, 251190, 231778, 240779, 257772, 262479, 235075, 231961, 261735, 250769, 246634, 204339, 249238, 201579, 204320, 240726, 248462, 260445, 257537, 230593, 263221, 204814, 249251, 201943, 255406, 262808, 248961, 200564, 242588, 250249, 227892, 244585, 230681, 206638, 240030, 204711, 262934, 230960, 250024, 236288, 264985, 236508, 263689, 264320, 257034, 255505, 264141, 264575, 264721, 247114, 238436, 251675, 245478, 238510, 236581, 246210, 233096, 205219, 240219, 202299, 235494, 259123, 245925, 235009, 236515, 231963, 203784, 226807, 226991, 238329, 246881, 200159, 201432, 261839, 248647, 260692, 232055, 256153, 251452, 233604, 243663, 201221, 238290, 250461, 200333, 248655, 248929, 201119, 238938, 243320, 261465, 240610, 200710, 241266, 202033, 240728, 237054, 249193, 232715, 263238, 249968, 249828, 238496, 225588, 262813, 242550, 225548, 239900, 246054, 246517, 236911, 226055, 264283, 233968, 206659, 233711, 239593, 260042, 263021, 235487, 258979, 243929, 244923, 236675, 202477, 249654, 262851, 204443, 262788, 261827, 205358, 259368, 261141, 255281, 264436, 261920, 205416, 249956, 259768, 245874, 200606, 234447, 235665, 246295, 249762, 242955, 250532, 242313, 259936, 244108, 240732, 255684, 235098, 234057, 249055, 249998, 234894, 245015, 258058, 258367, 248886, 226794, 205482, 238212, 260396, 263110, 249001, 235704, 231441, 261608, 201101, 228105, 256345, 259744, 239249, 251756, 231797, 236943, 265323, 203396, 200757, 239020, 233052, 243029, 247391, 249951, 205585, 202751, 251428, 241268, 265011, 243002, 258399, 249785, 240602, 236522, 201818, 233198, 228568, 238279, 238243, 255807, 244280, 259921, 260332, 231448, 239345, 251007, 265283, 201033, 259582, 259859, 249668, 261987, 247858, 236540, 248720, 203944, 249327, 263613, 248327, 259961, 249053, 241399, 202248, 264616, 248035, 231931, 200134, 203535, 239309, 233235, 259455, 246414, 238457, 246130, 241291, 250465, 226312, 245435, 231980, 231755, 262299, 257201, 256068, 231633, 232636, 204381, 259589, 256408, 264108, 244799, 225691, 249181, 240727, 255234, 256332, 249627, 243152, 256042, 239908, 261990, 205943, 232064, 231561, 261265, 236457, 251591, 234422, 203751, 200607, 238181, 206580, 240287, 257089, 242997, 240380, 231632, 231560, 203935, 263353, 206724, 244556, 261102, 242974, 241598, 246033, 249423, 240119, 242412, 249469, 202318, 234311, 242962, 235759, 230245, 206547, 258737, 261181, 251652, 239275, 260432, 258899, 251133, 245042, 234610, 203598, 236167, 246427, 240428, 233272, 262437, 203893, 239362, 258776, 226740, 246670, 237207, 263003, 235930, 249067, 234633, 264244, 255487, 250122, 250612, 258073, 230646, 244503, 250123, 261985, 244420, 244724, 248374, 234830, 244187, 247892, 246844, 202747, 234269, 243943, 231930, 230908, 237781, 230314, 264611, 228255, 236416, 239601, 205917, 249699, 248858, 261937, 259981, 201665, 236187, 244730, 255503, 233586, 206332, 201162, 258048, 235891, 228113, 258481, 261600, 201309, 232750, 256554, 244721, 233048, 259678, 249161, 249626, 241748, 249744, 263710, 263425, 234588, 245904, 203171, 235613, 203271, 231869, 245540, 202883, 204354, 243656, 249330, 258613, 259755, 241044, 257736, 202507, 242597, 230131, 243681, 260779, 249610, 225800, 256930, 234189, 201858, 264720, 241505, 202795, 232377, 244445, 243403, 203510, 232771, 255359, 206164, 204633, 244748, 237583, 204834, 260417, 248595, 238518, 255434, 255059, 248969, 246281, 240553, 258833, 246898, 240980, 240627, 240718, 261458, 233093, 260330, 230104, 230739, 255049, 247607, 249724, 248461, 241811, 230485, 249210, 256800, 241254, 234248, 200830, 230031, 231083, 238812, 237118, 250417, 240264, 234481, 260860, 263234, 238870, 237823, 247289, 237480, 261389, 256040, 200926, 258658, 264473, 258391, 232009, 246919, 238081, 205244, 262203, 264194, 248315, 259516, 261563, 258973, 247983, 260622, 202405, 243124, 259319, 233696, 235576, 203995, 247603, 233495, 241111, 242873, 259653, 235888, 231277, 255900, 265113, 256956, 204439, 236836, 256280, 250834, 232867, 255688, 200630, 231345, 238159, 232184, 236650, 251737, 250386, 230389, 238247, 226994, 251584, 235551, 246528, 243647, 258196, 203472, 256163, 239454, 236317, 257306, 262240, 232235, 247102, 244771, 200704, 240805, 242398, 248546, 262937, 227289, 260980, 255652, 240860, 264437, 237951, 234007, 204950, 247095, 231670, 239714, 255140, 242515, 245300, 235079, 205604, 255991, 250981, 248097, 234808, 238832, 206193, 202825, 202043, 234230, 235151, 265066, 200401, 247823, 201552, 264888, 251518, 263315, 244513, 262624, 227982, 204780, 249250, 246065, 246409, 243565, 242911, 232514, 243571, 260715, 251191, 247382, 236258, 240979, 231984, 200081, 260703, 261897, 237976, 261664, 201777, 259524, 200557, 247083, 235006, 238786, 258505, 202057, 231793, 244787, 246887, 255309, 205658, 203163, 246164, 251819, 257924, 233931, 247793, 248749, 227574, 247088, 235986, 244869, 234441, 244164, 242219, 262692, 264362, 263303, 255625, 247052, 262652, 262582, 234552, 250571, 231494, 257399, 204983, 255656, 239972, 238580, 239665, 201893, 235777, 258405, 245182, 264663, 258141, 249704, 258398, 239398, 231848, 234258, 240639, 246774, 260771, 263749, 262167, 235709, 202998, 250902, 262821, 251577, 243592, 247586, 202469, 242030, 256286, 240725, 228310, 201476, 236127, 260237, 237516, 234268, 255631, 265024, 238288, 242958, 245423, 246252, 231554, 257875, 236775, 263109, 243059, 202569, 238969, 205168, 225678, 240271, 200944, 244382, 235072, 241884, 232364, 258325, 244584, 264851, 230804, 236485, 262679, 243039, 247186, 227253, 203842, 242670, 257942, 231362, 233562, 257055, 233882, 265143, 242824, 249437, 239378, 232964, 260960, 235992, 235239, 248558, 234371, 249777, 227015, 255083, 260197, 241408, 246588, 251117, 230128, 247893, 243898, 250998, 203169, 202436, 251011, 260392, 247471, 202899, 249878, 202053, 232855, 243793, 232784, 244559, 257627, 247949, 263984, 242794, 205760, 250742, 239181, 233271, 242064, 205548, 251784, 264135, 245362, 242935, 206170, 202330, 236399, 205788, 227482, 263273, 231514, 230905, 231421, 230807, 261120, 248184, 236130, 258969, 263948, 258388, 232385, 234582, 203160, 261372, 262698, 242225, 201918, 263069, 263138, 245118, 233938, 261300, 236631, 204422, 203922, 243514, 250676, 200160, 238273, 264212, 242893, 250347, 260261, 249253, 238258, 240314, 230615, 233255, 233334, 202850, 247970, 233419, 200936, 235903, 264385, 237072, 235195, 206727, 261660, 260223, 233018, 262247, 239418, 243594, 204373, 262495, 241716, 237301, 243083, 262863, 226288, 264534, 255744, 246730, 258813, 241994, 202622, 202729, 240278, 258689, 201292, 258722, 233669, 259816, 201059, 232307, 248086, 206295, 206737, 238304, 244949, 257716, 247548, 240536, 257531, 250243, 202300, 234188, 204691, 249766, 263364, 241339, 234132, 260711, 202563, 242063, 232038, 241533, 244519, 225218, 226797, 230637, 234845, 251219, 255534, 232371, 241479, 240395, 236978, 239926, 243596, 200101, 246955, 242252, 238456, 244196, 246341, 256885, 230841, 244847, 225115, 263041, 206302, 230997, 241984, 206115, 263198, 231411, 202228, 200281, 235116, 257454, 240944, 251299, 263153, 249652, 258842, 237150, 250576, 242184, 201553, 231355, 261114, 206153, 202593, 232733, 245426, 239584, 264702, 243108, 258799, 243603, 202238, 202134, 235844, 202403, 263944, 249424, 256428, 226545, 258565, 264749, 236616, 233836, 200971, 236140, 241898, 200150, 245353, 251796, 236961, 239329, 231964, 233667, 205053, 262158, 247850, 235951, 250488, 243099, 236835, 233467, 234501, 250180, 227431, 206542, 201872, 249940, 250326, 251070, 204441, 240204, 233432, 233038, 261263, 242090, 262029, 238849, 227292, 246291, 238663, 235096, 230777, 235813, 237288, 249107, 226317, 249774, 239556, 231096, 230385, 225749, 204186, 205396, 225951, 256226, 264818, 264773, 233139, 230987, 262712, 261430, 246349, 201785, 242149, 240246, 240986, 205961, 205965, 237962, 205384, 239688, 202490, 230985, 251749, 231566, 200074, 239965, 200358, 245197, 237097, 236478, 256002, 205177, 242231, 233355, 206096, 245580, 233365, 246337, 246643, 239222, 249367, 250739, 241738, 239847, 236629, 246075, 263602, 264578, 244968, 244501, 246979, 234200, 251782, 233032, 204901, 260083, 262908, 241228, 247096, 245419, 234525, 225527, 225969, 238112, 247241, 240088, 226001, 234907, 263511, 205023, 206481, 237307, 230775, 250210, 263892, 242943, 244828, 242834, 205659, 205402, 258193, 255139, 240669, 233080, 246402, 248972, 227924, 230851, 227946, 235956, 238716, 249737, 264457, 235070, 201447, 238184, 242734, 242166, 245942, 247312, 231268, 264117, 258571, 251587, 237408, 230056, 263071, 249696, 205297, 244947, 240043, 261584, 236365, 258742, 205607, 233796, 204229, 246542, 246592, 238034, 232728, 265271, 241342, 235663, 255431, 200477, 200455, 231551, 233217, 240973, 243367, 244160, 227915, 228016, 243292, 204865, 246856, 231256, 261738, 250758, 201170, 255810, 246816, 242224, 200011, 233007, 205602, 206647, 261073, 250574, 240252, 257932, 262367, 236122, 243139, 205637, 250396, 259946, 258430, 242096, 263400, 232198, 255982, 200764, 246984, 247965, 244440, 233908, 233857, 260824, 236230, 228384, 247533, 242054, 203876, 240592, 225836, 236758, 256699, 248863, 244726, 233888, 250906, 250551, 243543, 264723, 261369, 245706, 263301, 202468, 240256, 260256, 246985, 251062, 261018, 260674, 200583, 237603, 248506, 236021, 256700, 204317, 264931, 244225, 205536, 243637, 238417, 251760, 251224, 248325, 249830, 226856, 261321, 242848, 246826, 262774, 248768, 201532, 264062, 249294, 240703, 249470, 236722, 251343, 250002, 245562, 240879, 242032, 246338, 250611, 244671, 201797, 234402, 228239, 262104, 240281, 246644, 227276, 264654, 227529, 247423, 264080, 231775, 246734, 232209, 264516, 245939, 234060, 244683, 244538, 247271, 241499, 201225, 250233, 201346, 244971, 234016, 258155, 246594, 264254, 244357, 231176, 206379, 258857, 240044, 262062, 205094, 263903, 247495, 265104, 239719, 236840, 200798, 200832, 237316, 244345, 203390, 206566, 243130, 263095, 259041, 230176, 246204, 261687, 205938, 240910, 243447, 240452, 262580, 241849, 250425, 246566, 260153, 230366, 200485, 234224, 249130, 247077, 240153, 203805, 243341, 200491, 234147, 232685, 238235, 246146, 248387, 251811, 250514, 250391, 261621, 250163, 258514, 235058, 203927, 243475, 243750, 247133, 240396, 204566, 258870, 251120, 262319, 205883, 204667, 249182, 261984, 234829, 227611, 241027, 200977, 245693, 248507, 255409, 257389, 250707, 205372, 239304, 232401, 232691, 262048, 246305, 203318, 258349, 259155, 236987, 246063, 249684, 264213, 249249, 255466, 262038, 256196, 265060, 236151, 256797, 236202, 232296, 250978, 242095, 230070, 236190, 204083, 201956, 242505, 230965, 239905, 232528, 255627, 236409, 203894, 243036, 206092, 230638, 239836, 255552, 201244, 232059, 261456, 246969, 201327, 225109, 231147, 258759, 248352, 248983, 251297, 237016, 240158, 231150, 244128, 249296, 241033, 239962, 264226, 255163, 230821, 228301, 238131, 204846, 258620, 201008, 244693, 244599, 203546, 242481, 237519, 250277, 202908, 238268, 256031, 205571, 257439, 257735, 245683, 251360, 260289, 233848, 236026, 258624, 236311, 245390, 248583, 233773, 205245, 227057, 234931, 202763, 205574, 247404, 245009, 246371, 231565, 233526, 255861, 242158, 206753, 235432, 250797, 200899, 260880, 233609, 239478, 262630, 241026, 233978, 204686, 230276, 263560, 261418, 200656, 246107, 259331, 261327, 249679, 242756, 225551, 262589, 233369, 200233, 200799, 200357, 257650, 203983, 241671, 260507, 259214, 263100, 240399, 241548, 231043, 264425, 231859, 250687, 255358, 206518, 258904, 257128, 242714, 206864, 233557, 231604, 204001, 237292, 227793, 240375, 242808, 205309, 205521, 243870, 260679, 245403, 204649, 244288, 248913, 246344, 247767, 251693, 203341, 234860, 244350, 203440, 202571, 239422, 202981, 206446, 259297, 235776, 255546, 235080, 226133, 205249, 201332, 238080, 230221, 228512, 256152, 243922, 258099, 202404, 234725, 239311, 248233, 257482, 239586, 256644, 243428, 244914, 230955, 230990, 202104, 264528, 233996, 261940, 246092, 206702, 241301, 242331, 231528, 241184, 202022, 203387, 234297, 256539, 261514, 226754, 203274, 249408, 238643, 243651, 250894, 248218, 245677, 238015, 261455, 246527, 200241, 202718, 264144, 248378, 235588, 259577, 205745, 244915, 249347, 244549, 230213, 247577, 200981, 264529, 251723, 249776, 250774, 243060, 201908, 246684, 246963, 240628, 203846, 256641, 251067, 230828, 261526, 200760, 236455, 259132, 258483, 204364, 255568, 206435, 244957, 232335, 250292, 227471, 201510, 256401, 246799, 244975, 238642, 233101, 249143, 241003, 244829, 248977, 204220, 256004, 255725, 203144, 245302, 250936, 232782, 239138, 260506, 201955, 226321, 237740, 241097, 245407, 246435, 245364, 244511, 200250, 248482, 227849, 259908, 240358, 250307, 236688, 230945, 259046, 205887, 247567, 233847, 242082, 257209, 236957, 234727, 262011, 246617, 235972, 256898, 231233, 245668, 249894, 204146, 235566, 236903, 259787, 245002, 206117, 203146, 202376, 202992, 265120, 231415, 244235, 235082, 244263, 232126, 240206, 231372, 247328, 246263, 247303, 247280, 201171, 248888, 255361, 234420, 259183, 260440, 249595, 264044, 200203, 206604, 227718, 232558, 236325, 234541, 201178, 242429, 246964, 204601, 201852, 249569, 262785, 237460, 240103, 246500, 203047, 246921, 233901, 231274, 231642, 233506, 244772, 237421, 257122, 204537, 204139, 234280, 258022, 201464, 202218, 262625, 242085, 200231, 203200, 241390, 241905, 248695, 250522, 226363, 251743, 242746, 240518, 264874, 206184, 202838, 200882, 201963, 238960, 244960, 264183, 239790, 226026, 234170, 265243, 200990, 238730]